#Parameters = {h=2; k=4.5; l0=15.9; l1=8.09; l2=8.59; l3=11; ld=25.9075; w0=5.05; w1=3.28; w2=0.083; w3=2.835; Mesh Pass=2}
#"Frequency / GHz"	"S1,1 (Mesh Pass=2) [Magnitude / dB]"
#-------------------------------------------------------
2.0000000000000	-10.039731748985
2.0016000270844	-10.058163916245
2.0032000541687	-10.076701164784
2.0048000812531	-10.095344775850
2.0064001083374	-10.114093295848
2.0079998970032	-10.132946736134
2.0095999240875	-10.151907320346
2.0111999511719	-10.170975002848
2.0127999782562	-10.190149382528
2.0144000053406	-10.209431848054
2.0160000324249	-10.228822268988
2.0176000595093	-10.248322565243
2.0192000865936	-10.267930144789
2.0208001136780	-10.287648582164
2.0223999023438	-10.307476932458
2.0239999294281	-10.327415879107
2.0255999565125	-10.347466533568
2.0271999835968	-10.367628032213
2.0288000106812	-10.387902286562
2.0304000377655	-10.408289660066
2.0320000648499	-10.428790410811
2.0336000919342	-10.449405400494
2.0352001190186	-10.470136209827
2.0367999076843	-10.490980561670
2.0383999347687	-10.511943170453
2.0399999618530	-10.533020937582
2.0415999889374	-10.554216390734
2.0432000160217	-10.575531141824
2.0448000431061	-10.596963007067
2.0464000701904	-10.618517118216
2.0480000972748	-10.640190591331
2.0495998859406	-10.661986252547
2.0511999130249	-10.683903712757
2.0527999401093	-10.705944095422
2.0543999671936	-10.728109284392
2.0559999942780	-10.750398628200
2.0576000213623	-10.772815564027
2.0592000484467	-10.795357569825
2.0608000755310	-10.818025569264
2.0624001026154	-10.840824966339
2.0639998912811	-10.863754263416
2.0655999183655	-10.886812734069
2.0671999454498	-10.910003641139
2.0687999725342	-10.933327541208
2.0703999996185	-10.956786233836
2.0720000267029	-10.980378837742
2.0736000537872	-11.004108474570
2.0752000808716	-11.027974620023
2.0768001079559	-11.051980754100
2.0783998966217	-11.076126231463
2.0799999237061	-11.100411052030
2.0815999507904	-11.124840531901
2.0831999778748	-11.149413504675
2.0848000049591	-11.174130944478
2.0864000320435	-11.198996406127
2.0880000591278	-11.224008462434
2.0896000862122	-11.249170317025
2.0912001132965	-11.274481667138
2.0927999019623	-11.299946637032
2.0943999290466	-11.325564488031
2.0959999561310	-11.351337544351
2.0975999832153	-11.377268742891
2.0992000102997	-11.403358413696
2.1008000373840	-11.429607668582
2.1024000644684	-11.456018329726
2.1040000915527	-11.482594195958
2.1056001186371	-11.509334432872
2.1071999073029	-11.536240765796
2.1087999343872	-11.563316574129
2.1103999614716	-11.590564471272
2.1119999885559	-11.617982851267
2.1136000156403	-11.645577224603
2.1152000427246	-11.673347149753
2.1168000698090	-11.701297555456
2.1184000968933	-11.729427379031
2.1199998855591	-11.757739368431
2.1215999126434	-11.786237410843
2.1231999397278	-11.814922306646
2.1247999668121	-11.843794873083
2.1263999938965	-11.872859267054
2.1280000209808	-11.902118341200
2.1296000480652	-11.931572349205
2.1312000751495	-11.961225265033
2.1328001022339	-11.991077357624
2.1343998908997	-12.021135147120
2.1359999179840	-12.051397922401
2.1375999450684	-12.081867591914
2.1391999721527	-12.112549729718
2.1407999992371	-12.143445341984
2.1424000263214	-12.174555662798
2.1440000534058	-12.205885771614
2.1456000804901	-12.237438042863
2.1472001075745	-12.269214279761
2.1487998962402	-12.301218998180
2.1503999233246	-12.333453627030
2.1519999504089	-12.365920713038
2.1535999774933	-12.398625120784
2.1552000045776	-12.431569441012
2.1568000316620	-12.464757144182
2.1584000587463	-12.498189771449
2.1600000858307	-12.531872061534
2.1616001129150	-12.565806134721
2.1631999015808	-12.599996174120
2.1647999286652	-12.634446047662
2.1663999557495	-12.669160818793
2.1679999828339	-12.704139824413
2.1696000099182	-12.739390115366
2.1712000370026	-12.774914563465
2.1728000640869	-12.810716532988
2.1744000911713	-12.846800333280
2.1760001182556	-12.883170690569
2.1775999069214	-12.919830070025
2.1791999340057	-12.956782700492
2.1807999610901	-12.994033602048
2.1823999881744	-13.031586688070
2.1840000152588	-13.069447005043
2.1856000423431	-13.107617263820
2.1872000694275	-13.146102513906
2.1888000965118	-13.184909014323
2.1903998851776	-13.224038707557
2.1919999122620	-13.263498615841
2.1935999393463	-13.303293039542
2.1951999664307	-13.343426256264
2.1967999935150	-13.383903971346
2.1984000205994	-13.424730673754
2.2000000476837	-13.465912418261
2.2016000747681	-13.507453324451
2.2032001018524	-13.549361313191
2.2047998905182	-13.591638639700
2.2063999176025	-13.634292312319
2.2079999446869	-13.677326871590
2.2095999717712	-13.720752509535
2.2111999988556	-13.764569848304
2.2128000259399	-13.808787815671
2.2144000530243	-13.853414786284
2.2160000801086	-13.898451651887
2.2176001071930	-13.943909461015
2.2191998958588	-13.989792567036
2.2207999229431	-14.036108217219
2.2223999500275	-14.082862607512
2.2239999771118	-14.130065274835
2.2256000041962	-14.177721007929
2.2272000312805	-14.225838063759
2.2288000583649	-14.274422644340
2.2304000854492	-14.323485984285
2.2320001125336	-14.373030825928
2.2335999011993	-14.423069374068
2.2351999282837	-14.473608693640
2.2367999553680	-14.524657335850
2.2383999824524	-14.576222087799
2.2400000095367	-14.628311811881
2.2416000366211	-14.680939636847
2.2432000637054	-14.734108820266
2.2448000907898	-14.787831867847
2.2464001178741	-14.842119501024
2.2479999065399	-14.896979115644
2.2495999336243	-14.952421453445
2.2511999607086	-15.008457672316
2.2527999877930	-15.065097773139
2.2544000148773	-15.122350928586
2.2560000419617	-15.180229577319
2.2576000690460	-15.238746203741
2.2592000961304	-15.297911006610
2.2607998847961	-15.357736177755
2.2623999118805	-15.418233856056
2.2639999389648	-15.479417550693
2.2655999660492	-15.541297865593
2.2671999931335	-15.603889432499
2.2688000202179	-15.667203995267
2.2704000473022	-15.731258888954
2.2720000743866	-15.796066225229
2.2736001014709	-15.861638582771
2.2751998901367	-15.927995239122
2.2767999172211	-15.995148939859
2.2783999443054	-16.063114968617
2.2799999713898	-16.131910905557
2.2815999984741	-16.201554723366
2.2832000255585	-16.272061396072
2.2848000526428	-16.343448080770
2.2864000797272	-16.415734845330
2.2880001068115	-16.488942138032
2.2895998954773	-16.563084265089
2.2911999225616	-16.638186695707
2.2927999496460	-16.714266194096
2.2943999767303	-16.791344973914
2.2960000038147	-16.869447096598
2.2976000308990	-16.948591248400
2.2992000579834	-17.028802136035
2.3008000850677	-17.110104206203
2.3024001121521	-17.192524115067
2.3039999008179	-17.276084298299
2.3055999279022	-17.360812409793
2.3071999549866	-17.446736842758
2.3087999820709	-17.533883416201
2.3104000091553	-17.622284434593
2.3120000362396	-17.711969075887
2.3136000633240	-17.802968282362
2.3152000904083	-17.895314813618
2.3168001174927	-17.989042182123
2.3183999061584	-18.084185195955
2.3199999332428	-18.180781323281
2.3215999603271	-18.278868855321
2.3231999874115	-18.378483431960
2.3248000144958	-18.479667997461
2.3264000415802	-18.582465334861
2.3280000686646	-18.686919372699
2.3296000957489	-18.793073830965
2.3311998844147	-18.900978881524
2.3327999114990	-19.010681629040
2.3343999385834	-19.122234270558
2.3359999656677	-19.235690903920
2.3375999927521	-19.351110737445
2.3392000198364	-19.468548310194
2.3408000469208	-19.588065231214
2.3424000740051	-19.709728464466
2.3440001010895	-19.833603691210
2.3455998897552	-19.959759837988
2.3471999168396	-20.088271835496
2.3487999439240	-20.219215427773
2.3503999710083	-20.352672977156
2.3519999980927	-20.488728835731
2.3536000251770	-20.627473035090
2.3552000522614	-20.768996232765
2.3568000793457	-20.913402073833
2.3584001064301	-21.060790009902
2.3599998950958	-21.211269931690
2.3615999221802	-21.364960970506
2.3631999492645	-21.521982102022
2.3647999763489	-21.682461566805
2.3664000034332	-21.846538676401
2.3680000305176	-22.014356371346
2.3696000576019	-22.186065960750
2.3712000846863	-22.361834300866
2.3728001117706	-22.541829893378
2.3743999004364	-22.726236880043
2.3759999275208	-22.915253205676
2.3775999546051	-23.109084432388
2.3791999816895	-23.307954376566
2.3808000087738	-23.512097146396
2.3824000358582	-23.721771816559
2.3840000629425	-23.937246617612
2.3856000900269	-24.158812058892
2.3872001171112	-24.386784026330
2.3887999057770	-24.621496403018
2.3903999328613	-24.863313830986
2.3919999599457	-25.112622719602
2.3935999870300	-25.369844651039
2.3952000141144	-25.635437575235
2.3968000411987	-25.909886835733
2.3984000682831	-26.193729130815
2.4000000953674	-26.487538932776
2.4015998840332	-26.791937931503
2.4031999111176	-27.107604088724
2.4047999382019	-27.435272135553
2.4063999652863	-27.775735176164
2.4079999923706	-28.129848582425
2.4096000194550	-28.498539393214
2.4112000465393	-28.882804254917
2.4128000736237	-29.283698079887
2.4144001007080	-29.702342196774
2.4159998893738	-30.139897888556
2.4175999164581	-30.597542232654
2.4191999435425	-31.076423304505
2.4207999706268	-31.577578142036
2.4223999977112	-32.101806800642
2.4240000247955	-32.649481474910
2.4256000518799	-33.220229935695
2.4272000789642	-33.812475480961
2.4288001060486	-34.422732685182
2.4303998947144	-35.044614161714
2.4319999217987	-35.667468696277
2.4335999488831	-36.274749477952
2.4351999759674	-36.842448872765
2.4368000030518	-37.338544963853
2.4384000301361	-37.724963012181
2.4400000572205	-37.963588687635
2.4416000843048	-38.025966522339
2.4432001113892	-37.902791365873
2.4447999000549	-37.607419958540
2.4463999271393	-37.170892655143
2.4479999542236	-36.631968857294
2.4495999813080	-36.027924218166
2.4512000083923	-35.389349915579
2.4528000354767	-34.738783264339
2.4544000625610	-34.091556661392
2.4560000896454	-33.457415062131
2.4576001167297	-32.842122134031
2.4591999053955	-32.248740919648
2.4607999324799	-31.678584873406
2.4623999595642	-31.131856672290
2.4639999866486	-30.608090255963
2.4656000137329	-30.106427758525
2.4672000408173	-29.625803994266
2.4688000679016	-29.165064394775
2.4704000949860	-28.723028510153
2.4719998836517	-28.298543873318
2.4735999107361	-27.890501364352
2.4751999378204	-27.497855394463
2.4767999649048	-27.119623116359
2.4783999919891	-26.754895404396
2.4800000190735	-26.402824737040
2.4816000461578	-26.062629412179
2.4832000732422	-25.733589110062
2.4848001003265	-25.415036243976
2.4863998889923	-25.106359176542
2.4879999160767	-24.806988601808
2.4895999431610	-24.516402152601
2.4911999702454	-24.234117393023
2.4927999973297	-23.959686170513
2.4944000244141	-23.692693360827
2.4960000514984	-23.432757373840
2.4976000785828	-23.179519566739
2.4992001056671	-22.932650227029
2.5007998943329	-22.691840611381
2.5023999214172	-22.456803650743
2.5039999485016	-22.227272467744
2.5055999755859	-22.002996179794
2.5072000026703	-21.783742188526
2.5088000297546	-21.569289268460
2.5104000568390	-21.359434104393
2.5120000839233	-21.153985158771
2.5136001110077	-20.952759845510
2.5151998996735	-20.755587933018
2.5167999267578	-20.562311717933
2.5183999538422	-20.372777428910
2.5199999809265	-20.186844862775
2.5216000080109	-20.004379281636
2.5232000350952	-19.825253266241
2.5248000621796	-19.649346962049
2.5264000892639	-19.476546398074
2.5280001163483	-19.306744585061
2.5295999050140	-19.139838429276
2.5311999320984	-18.975730372365
2.5327999591827	-18.814329215323
2.5343999862671	-18.655546280566
2.5360000133514	-18.499300006242
2.5376000404358	-18.345508285227
2.5392000675201	-18.194096466215
2.5408000946045	-18.044992620978
2.5423998832703	-17.898128265291
2.5439999103546	-17.753436573244
2.5455999374390	-17.610854109194
2.5471999645233	-17.470322783890
2.5487999916077	-17.331783095070
2.5504000186920	-17.195179910180
2.5520000457764	-17.060461567751
2.5536000728607	-16.927577228991
2.5552000999451	-16.796476565578
2.5567998886108	-16.667116010136
2.5583999156952	-16.539448512959
2.5599999427795	-16.413431420757
2.5615999698639	-16.289024709703
2.5631999969482	-16.166186960622
2.5648000240326	-16.044880566984
2.5664000511169	-15.925069452795
2.5680000782013	-15.806717713016
2.5696001052856	-15.689791530640
2.5711998939514	-15.574256319954
2.5727999210358	-15.460083071340
2.5743999481201	-15.347238535179
2.5759999752045	-15.235694539300
2.5776000022888	-15.125424103143
2.5792000293732	-15.016396329705
2.5808000564575	-14.908587549647
2.5824000835419	-14.801969899809
2.5840001106262	-14.696519301533
2.5855998992920	-14.592212809229
2.5871999263763	-14.489025905343
2.5887999534607	-14.386936377101
2.5903999805450	-14.285922527909
2.5920000076294	-14.185962216633
2.5936000347137	-14.087036879524
2.5952000617981	-13.989125109205
2.5968000888824	-13.892208580462
2.5984001159668	-13.796267863198
2.5999999046326	-13.701284731321
2.6015999317169	-13.607243265822
2.6031999588013	-13.514124313398
2.6047999858856	-13.421912844490
2.6064000129700	-13.330591117417
2.6080000400543	-13.240146142775
2.6096000671387	-13.150560016019
2.6112000942230	-13.061818945630
2.6127998828888	-12.973909202368
2.6143999099731	-12.886816163063
2.6159999370575	-12.800525747022
2.6175999641418	-12.715025761059
2.6191999912262	-12.630303092542
2.6208000183105	-12.546344964340
2.6224000453949	-12.463138724645
2.6240000724792	-12.380673858919
2.6256000995636	-12.298937050021
2.6271998882294	-12.217918257272
2.6287999153137	-12.137606023336
2.6303999423981	-12.057988863572
2.6319999694824	-11.979056872467
2.6335999965668	-11.900801414938
2.6352000236511	-11.823210335687
2.6368000507355	-11.746276304830
2.6384000778198	-11.669986547462
2.6400001049042	-11.594334407441
2.6415998935699	-11.519308344109
2.6431999206543	-11.444901381623
2.6447999477386	-11.371107481999
2.6463999748230	-11.297913228842
2.6480000019073	-11.225313013351
2.6496000289917	-11.153296563999
2.6512000560760	-11.081859533146
2.6528000831604	-11.010991923175
2.6544001102448	-10.940687603890
2.6559998989105	-10.870938217501
2.6575999259949	-10.801736571303
2.6591999530792	-10.733074465941
2.6607999801636	-10.664946294878
2.6624000072479	-10.597347650687
2.6640000343323	-10.530267746393
2.6656000614166	-10.463702418614
2.6672000885010	-10.397645150811
2.6688001155853	-10.332089053867
2.6703999042511	-10.267027265399
2.6719999313354	-10.202456135122
2.6735999584198	-10.138370617062
2.6751999855042	-10.074760897830
2.6768000125885	-10.011622535144
2.6784000396729	-9.9489524712130
2.6800000667572	-9.8867444113853
2.6816000938416	-9.8249926422952
2.6831998825073	-9.7636921038738
2.6847999095917	-9.7028376263336
2.6863999366760	-9.6424234096083
2.6879999637604	-9.5824461010939
2.6895999908447	-9.5228984338825
2.6912000179291	-9.4637784440998
2.6928000450134	-9.4050796012963
2.6944000720978	-9.3467992623792
2.6960000991821	-9.2889317262152
2.6975998878479	-9.2314740084710
2.6991999149323	-9.1744189246617
2.7007999420166	-9.1177644949091
2.7023999691010	-9.0615056285643
2.7039999961853	-9.0056398626400
2.7056000232697	-8.9501620355196
2.7072000503540	-8.8950662795875
2.7088000774384	-8.8403517451429
2.7104001045227	-8.7860141749721
2.7119998931885	-8.7320490364473
2.7135999202728	-8.6784531297153
2.7151999473572	-8.6252218053061
2.7167999744415	-8.5723536079385
2.7184000015259	-8.5198414869329
2.7200000286102	-8.4676860197894
2.7216000556946	-8.4158809947441
2.7232000827789	-8.3644242084815
2.7248001098633	-8.3133132437799
2.7263998985291	-8.2625419951576
2.7279999256134	-8.2121108534572
2.7295999526978	-8.1620159830889
2.7311999797821	-8.1122505989634
2.7328000068665	-8.0628177322328
2.7344000339508	-8.0137085780870
2.7360000610352	-7.9649253766621
2.7376000881195	-7.9164610373914
2.7392001152039	-7.8683147484370
2.7407999038696	-7.8204823571577
2.7423999309540	-7.7729632311972
2.7439999580383	-7.7257528151452
2.7455999851227	-7.6788503399659
2.7472000122070	-7.6322506101879
2.7488000392914	-7.5859545411918
2.7504000663757	-7.5399558648977
2.7520000934601	-7.4942527919634
2.7535998821259	-7.4488446404902
2.7551999092102	-7.4037279847955
2.7567999362946	-7.3589013726526
2.7583999633789	-7.3143600210439
2.7599999904633	-7.2701033864797
2.7616000175476	-7.2261295946921
2.7632000446320	-7.1824348166584
2.7648000717163	-7.1390166776135
2.7664000988007	-7.0958752379404
2.7679998874664	-7.0530058635602
2.7695999145508	-7.0104087716709
2.7711999416351	-6.9680787486240
2.7727999687195	-6.9260165758494
2.7743999958038	-6.8842187856734
2.7760000228882	-6.8426843788823
2.7776000499725	-6.8014081536658
2.7792000770569	-6.7603924825240
2.7808001041412	-6.7196329111520
2.7823998928070	-6.6791275748699
2.7839999198914	-6.6388735946651
2.7855999469757	-6.5988714449190
2.7871999740601	-6.5591186971926
2.7888000011444	-6.5196121388105
2.7904000282288	-6.4803513169636
2.7920000553131	-6.4413337247579
2.7936000823975	-6.4025583641701
2.7952001094818	-6.3640214966499
2.7967998981476	-6.3257238670645
2.7983999252319	-6.2876604050144
2.7999999523163	-6.2498335283163
2.8015999794006	-6.2122392544122
2.8032000064850	-6.1748749984519
2.8048000335693	-6.1377408957734
2.8064000606537	-6.1008355173124
2.8080000877380	-6.0641562407363
2.8096001148224	-6.0277019927159
2.8111999034882	-5.9914694958355
2.8127999305725	-5.9554604176472
2.8143999576569	-5.9196707794163
2.8159999847412	-5.8840981366942
2.8176000118256	-5.8487452487505
2.8192000389099	-5.8136059677518
2.8208000659943	-5.7786823268074
2.8224000930786	-5.7439690686049
2.8239998817444	-5.7094702120758
2.8255999088287	-5.6751785920632
2.8271999359131	-5.6410961355865
2.8287999629974	-5.6072203031834
2.8303999900818	-5.5735503928750
2.8320000171661	-5.5400834438666
2.8336000442505	-5.5068199434388
2.8352000713348	-5.4737590713460
2.8368000984192	-5.4408971682673
2.8383998870850	-5.4082346612116
2.8399999141693	-5.3757695499306
2.8415999412537	-5.3435001355041
2.8431999683380	-5.3114270068919
2.8447999954224	-5.2795463415558
2.8464000225067	-5.2478589114635
2.8480000495911	-5.2163609163063
2.8496000766754	-5.1850553936526
2.8512001037598	-5.1539373171931
2.8527998924255	-5.1230071871696
2.8543999195099	-5.0922626029961
2.8559999465942	-5.0617047338535
2.8575999736786	-5.0313284833022
2.8592000007629	-5.0011368594536
2.8608000278473	-4.9711274070274
2.8624000549316	-4.9412969490119
2.8640000820160	-4.9116476018890
2.8656001091003	-4.8821753440605
2.8671998977661	-4.8528809210712
2.8687999248505	-4.8237603595424
2.8703999519348	-4.7948172572344
2.8719999790192	-4.7660470177840
2.8736000061035	-4.7374504392497
2.8752000331879	-4.7090247906568
2.8768000602722	-4.6807716884143
2.8784000873566	-4.6526868821729
2.8800001144409	-4.6247703220722
2.8815999031067	-4.5970222676133
2.8831999301910	-4.5694398604487
2.8847999572754	-4.5420237042413
2.8863999843597	-4.5147711799318
2.8880000114441	-4.4876830443577
2.8896000385284	-4.4607582838837
2.8912000656128	-4.4339944692091
2.8928000926971	-4.4073904185355
2.8943998813629	-4.3809468935751
2.8959999084473	-4.3546617569803
2.8975999355316	-4.3285346794399
2.8991999626160	-4.3025647462479
2.9007999897003	-4.2767498871331
2.9024000167847	-4.2510909148903
2.9040000438690	-4.2255861120473
2.9056000709534	-4.2002327892335
2.9072000980377	-4.1750327103239
2.9087998867035	-4.1499841942374
2.9103999137878	-4.1250865027666
2.9119999408722	-4.1003380509906
2.9135999679565	-4.0757373806288
2.9151999950409	-4.0512854826453
2.9168000221252	-4.0269808472803
2.9184000492096	-4.0028215437986
2.9200000762939	-3.9788076040807
2.9216001033783	-3.9549378872238
2.9231998920441	-3.9312120865886
2.9247999191284	-3.9076294693366
2.9263999462128	-3.8841882714032
2.9279999732971	-3.8608875398005
